Reading,seconds_from_UTC_00:00:00],Lon[deg],Lat[deg],CV-0.5m,IV-0.5m
1,72998.014,-105.07602598,39.01820896,-13.242,-0.820
2,72998.178,-105.07602579,39.01820844,-14.297,-0.841
3,72998.329,-105.07602562,39.01820796,-14.961,-0.848
4,72998.507,-105.07602541,39.01820740,-16.055,-0.840
5,72998.671,-105.07602522,39.01820687,-16.250,-0.832
6,72998.849,-105.07602501,39.01820631,-15.625,-0.831
7,72999.017,-105.07602477,39.01820584,-15.156,-0.834
8,72999.236,-105.07602401,39.01820595,-15.703,-0.813
9,72999.454,-105.07602324,39.01820606,-15.703,-0.768
10,72999.673,-105.07602248,39.01820617,-15.703,-0.782
11,72999.891,-105.07602172,39.01820628,-14.844,-0.760
12,73000.090,-105.07602183,39.01820567,-14.727,-0.721
13,73000.284,-105.07602289,39.01820425,-14.766,-0.747
14,73000.462,-105.07602388,39.01820294,-15.391,-0.775
15,73000.642,-105.07602486,39.01820163,-14.688,-0.795
16,73000.836,-105.07602593,39.01820020,-14.258,-0.824
17,73001.017,-105.07602694,39.01819884,-14.609,-0.780
18,73001.200,-105.07602803,39.01819714,-21.211,-0.692
19,73001.400,-105.07602923,39.01819526,-20.625,-0.659
20,73001.617,-105.07603053,39.01819324,-17.734,-0.681
21,73001.818,-105.07603174,39.01819137,-16.328,-0.704
22,73002.032,-105.07603314,39.01818941,-15.898,-0.772
23,73002.219,-105.07603491,39.01818791,-17.148,-0.860
24,73002.407,-105.07603670,39.01818641,-16.641,-0.905
25,73002.579,-105.07603833,39.01818503,-16.016,-0.928
26,73002.782,-105.07604026,39.01818341,-16.523,-0.909
27,73002.969,-105.07604204,39.01818191,-16.797,-0.883
28,73003.150,-105.07604328,39.01818074,-16.328,-0.896
29,73003.329,-105.07604441,39.01817964,-16.406,-0.892
30,73003.508,-105.07604555,39.01817853,-14.492,-0.873
31,73003.702,-105.07604678,39.01817734,-13.477,-0.874
32,73003.866,-105.07604782,39.01817632,-14.570,-0.847
33,73004.063,-105.07604929,39.01817483,-15.508,-0.787
34,73004.235,-105.07605098,39.01817299,-15.781,-0.785
35,73004.438,-105.07605297,39.01817083,-15.977,-0.803
36,73004.625,-105.07605481,39.01816883,-14.141,-0.796
37,73004.828,-105.07605681,39.01816667,-12.461,-0.822
38,73005.017,-105.07605864,39.01816469,-14.141,-0.859
39,73005.216,-105.07606027,39.01816299,-14.297,-0.870
40,73005.417,-105.07606190,39.01816129,-14.805,-0.900
41,73005.616,-105.07606353,39.01815960,-14.219,-0.886
42,73005.817,-105.07606517,39.01815789,-12.539,-0.855
43,73006.015,-105.07606680,39.01815619,-12.656,-0.872
44,73006.197,-105.07606847,39.01815433,-14.492,-0.857
45,73006.394,-105.07607028,39.01815233,-14.844,-0.834
46,73006.576,-105.07607195,39.01815048,-14.805,-0.859
47,73006.742,-105.07607347,39.01814879,-14.258,-0.823
48,73006.940,-105.07607528,39.01814678,-13.633,-0.777
49,73007.123,-105.07607674,39.01814514,-13.594,-0.811
50,73007.308,-105.07607809,39.01814360,-14.570,-0.825
51,73007.508,-105.07607956,39.01814193,-14.727,-0.837
52,73007.692,-105.07608091,39.01814040,-15.156,-0.855
53,73007.877,-105.07608226,39.01813886,-11.172,-0.777
54,73008.043,-105.07608346,39.01813751,-11.562,-0.771
55,73008.229,-105.07608473,39.01813612,-12.500,-0.795
56,73008.400,-105.07608590,39.01813483,-14.492,-0.769
57,73008.586,-105.07608717,39.01813344,-15.039,-0.771
58,73008.758,-105.07608834,39.01813215,-15.312,-0.785
59,73008.929,-105.07608951,39.01813087,-14.492,-0.753
60,73009.128,-105.07609109,39.01812937,-13.398,-0.782
61,73009.345,-105.07609294,39.01812774,-14.180,-0.801
62,73009.564,-105.07609479,39.01812610,-14.727,-0.803
63,73009.781,-105.07609664,39.01812447,-14.883,-0.831
64,73010.015,-105.07609864,39.01812271,-14.883,-0.854
65,73010.200,-105.07610033,39.01812120,-13.398,-0.845
66,73010.384,-105.07610202,39.01811970,-13.438,-0.863
67,73010.569,-105.07610372,39.01811818,-14.844,-0.846
68,73010.754,-105.07610541,39.01811668,-15.312,-0.814
69,73010.939,-105.07610711,39.01811517,-15.586,-0.848
70,73011.129,-105.07610857,39.01811361,-15.312,-0.861
71,73011.323,-105.07610993,39.01811203,-12.930,-0.849
72,73011.533,-105.07611139,39.01811032,-11.836,-0.873
73,73011.727,-105.07611275,39.01810873,-13.281,-0.861
74,73011.920,-105.07611410,39.01810716,-14.922,-0.783
75,73012.108,-105.07611519,39.01810587,-15.430,-0.787
76,73012.308,-105.07611616,39.01810470,-15.000,-0.774
77,73012.477,-105.07611697,39.01810372,-14.141,-0.804
78,73012.661,-105.07611786,39.01810264,-13.633,-0.842
79,73012.861,-105.07611883,39.01810148,-14.648,-0.850
80,73013.042,-105.07611987,39.01810035,-14.297,-0.860
81,73013.211,-105.07612136,39.01809908,-15.625,-0.913
82,73013.394,-105.07612298,39.01809771,-15.547,-0.931
83,73013.564,-105.07612448,39.01809644,-14.453,-0.923
84,73013.719,-105.07612585,39.01809528,-13.516,-0.926
85,73013.887,-105.07612734,39.01809401,-14.844,-0.924
86,73014.086,-105.07612915,39.01809255,-14.766,-0.895
87,73014.294,-105.07613112,39.01809106,-15.156,-0.892
88,73014.500,-105.07613308,39.01808958,-15.352,-0.875
89,73014.708,-105.07613505,39.01808810,-14.570,-0.861
90,73014.932,-105.07613718,39.01808649,-14.180,-0.885
91,73015.105,-105.07613806,39.01808514,-15.039,-0.881
92,73015.299,-105.07613848,39.01808356,-15.352,-0.862
93,73015.478,-105.07613887,39.01808210,-15.547,-0.912
94,73015.657,-105.07613926,39.01808063,-15.391,-0.935
95,73015.836,-105.07613964,39.01807917,-13.867,-0.916
96,73016.032,-105.07614011,39.01807757,-13.203,-0.911
97,73016.219,-105.07614073,39.01807601,-12.109,-0.888
98,73016.422,-105.07614141,39.01807432,-8.359,-0.887
99,73016.578,-105.07614193,39.01807302,-0.625,-0.842
100,73016.782,-105.07614261,39.01807132,15.938,-0.550
101,73016.969,-105.07614323,39.01806976,37.500,0.087
102,73017.180,-105.07614496,39.01806776,57.266,0.959
103,73017.378,-105.07614673,39.01806585,66.992,1.736
104,73017.574,-105.07614850,39.01806395,51.602,1.365
105,73017.771,-105.07615027,39.01806204,30.859,0.531
106,73017.967,-105.07615204,39.01806015,16.133,-0.025
107,73018.140,-105.07615343,39.01805862,4.648,-0.365
108,73018.306,-105.07615473,39.01805718,-1.992,-0.500
109,73018.486,-105.07615614,39.01805562,-6.953,-0.536
110,73018.653,-105.07615745,39.01805417,-10.156,-0.655
111,73018.820,-105.07615875,39.01805273,-12.422,-0.752
112,73018.987,-105.07616006,39.01805128,-10.664,-0.796
113,73019.167,-105.07616158,39.01804992,-11.133,-0.847
114,73019.333,-105.07616300,39.01804867,-12.578,-0.824
115,73019.530,-105.07616467,39.01804719,-13.320,-0.820
116,73019.727,-105.07616634,39.01804572,-13.711,-0.838
117,73019.909,-105.07616789,39.01804435,-11.523,-0.791
118,73020.106,-105.07616964,39.01804276,-11.953,-0.848
119,73020.321,-105.07617161,39.01804094,-12.852,-0.845
120,73020.553,-105.07617374,39.01803896,-13.516,-0.792
121,73020.750,-105.07617554,39.01803729,-14.609,-0.812
122,73020.963,-105.07617750,39.01803548,-13.320,-0.753
123,73021.180,-105.07617961,39.01803366,-14.023,-0.741
124,73021.377,-105.07618154,39.01803203,-13.984,-0.786
125,73021.574,-105.07618348,39.01803038,-14.453,-0.759
126,73021.770,-105.07618541,39.01802875,-14.453,-0.772
127,73021.967,-105.07618735,39.01802710,-14.609,-0.796
128,73022.154,-105.07618938,39.01802560,-12.617,-0.728
129,73022.339,-105.07619145,39.01802412,-12.383,-0.742
130,73022.539,-105.07619368,39.01802252,-13.320,-0.763
131,73022.723,-105.07619574,39.01802105,-14.336,-0.737
132,73022.908,-105.07619781,39.01801957,-14.336,-0.787
133,73023.084,-105.07619950,39.01801825,-13.398,-0.797
134,73023.264,-105.07620095,39.01801699,-9.570,-0.740
135,73023.417,-105.07620217,39.01801592,-9.961,-0.816
136,73023.584,-105.07620351,39.01801475,-11.797,-0.832
137,73023.750,-105.07620484,39.01801358,-12.578,-0.772
138,73023.931,-105.07620628,39.01801232,-13.867,-0.810
139,73024.121,-105.07620829,39.01801080,-13.008,-0.786
140,73024.327,-105.07621076,39.01800905,-12.812,-0.739
141,73024.551,-105.07621345,39.01800715,-13.867,-0.766
142,73024.759,-105.07621594,39.01800539,-15.234,-0.707
143,73024.948,-105.07621821,39.01800377,-15.547,-0.691
144,73025.156,-105.07622047,39.01800196,-14.883,-0.772
145,73025.343,-105.07622243,39.01800030,-12.188,-0.745
146,73025.531,-105.07622441,39.01799864,-11.250,-0.751
147,73025.734,-105.07622654,39.01799685,-11.797,-0.813
148,73025.922,-105.07622851,39.01799519,-13.398,-0.805
149,73026.109,-105.07623035,39.01799343,-14.414,-0.773
150,73026.281,-105.07623196,39.01799174,-14.844,-0.825
151,73026.484,-105.07623385,39.01798974,-13.867,-0.798
152,73026.672,-105.07623561,39.01798789,-13.242,-0.769
153,73026.859,-105.07623735,39.01798605,-13.086,-0.809
154,73027.049,-105.07623916,39.01798417,-14.492,-0.803
155,73027.262,-105.07624129,39.01798204,-14.609,-0.763
156,73027.459,-105.07624325,39.01798008,-15.117,-0.804
157,73027.672,-105.07624538,39.01797795,-13.867,-0.812
158,73027.836,-105.07624703,39.01797630,-12.773,-0.782
159,73028.041,-105.07624915,39.01797415,-13.125,-0.821
160,73028.202,-105.07625110,39.01797210,-14.648,-0.816
161,73028.378,-105.07625320,39.01796988,-14.805,-0.788
162,73028.541,-105.07625515,39.01796782,-14.922,-0.836
163,73028.702,-105.07625710,39.01796577,-14.062,-0.838
164,73028.865,-105.07625905,39.01796371,-13.086,-0.821
165,73029.037,-105.07626097,39.01796164,-13.438,-0.854
166,73029.259,-105.07626283,39.01795945,-14.375,-0.845
167,73029.481,-105.07626468,39.01795727,-14.727,-0.823
168,73029.704,-105.07626653,39.01795508,-15.000,-0.855
169,73029.944,-105.07626854,39.01795271,-13.281,-0.826
170,73030.140,-105.07627000,39.01795079,-13.242,-0.824
171,73030.344,-105.07627147,39.01794878,-12.500,-0.857
172,73030.500,-105.07627258,39.01794725,-14.023,-0.861
173,73030.703,-105.07627404,39.01794525,-14.414,-0.869
174,73030.890,-105.07627538,39.01794341,-14.883,-0.907
175,73031.089,-105.07627676,39.01794149,-14.023,-0.866
176,73031.265,-105.07627793,39.01793982,-13.086,-0.872
177,73031.442,-105.07627911,39.01793814,-12.773,-0.888
178,73031.633,-105.07628039,39.01793632,-13.789,-0.869
179,73031.809,-105.07628156,39.01793465,-14.922,-0.831
180,73031.971,-105.07628264,39.01793311,-15.156,-0.874
181,73032.183,-105.07628436,39.01793131,-14.414,-0.847
182,73032.384,-105.07628603,39.01792964,-14.492,-0.843
183,73032.583,-105.07628769,39.01792797,-14.141,-0.870
184,73032.784,-105.07628936,39.01792630,-14.961,-0.865
185,73032.983,-105.07629102,39.01792464,-14.766,-0.850
186,73146.017,-105.07630387,39.01792978,-15.000,-0.954
187,73146.209,-105.07630239,39.01793110,-14.141,-0.962
188,73146.404,-105.07630091,39.01793242,-15.391,-0.953
189,73146.596,-105.07629943,39.01793374,-19.805,-0.901
190,73146.791,-105.07629794,39.01793507,-19.297,-0.909
191,73146.983,-105.07629646,39.01793639,-16.172,-0.954
192,73147.175,-105.07629593,39.01793842,-14.609,-0.944
193,73147.381,-105.07629544,39.01794069,-13.477,-0.958
194,73147.572,-105.07629500,39.01794279,-14.141,-0.977
195,73147.778,-105.07629452,39.01794506,-14.570,-0.985
196,73147.968,-105.07629407,39.01794715,-14.570,-0.995
197,73148.141,-105.07629283,39.01794882,-13.750,-0.966
198,73148.329,-105.07629126,39.01795057,-13.477,-0.946
199,73148.532,-105.07628957,39.01795247,-12.695,-0.925
200,73148.719,-105.07628801,39.01795421,-13.398,-0.931
201,73148.907,-105.07628644,39.01795597,-13.750,-0.916
202,73149.095,-105.07628471,39.01795764,-13.750,-0.934
203,73149.286,-105.07628280,39.01795927,-10.312,-0.881
204,73149.476,-105.07628091,39.01796088,-10.781,-0.914
205,73149.667,-105.07627900,39.01796250,-12.070,-0.939
206,73149.857,-105.07627710,39.01796412,-14.023,-0.946
207,73150.044,-105.07627528,39.01796568,-14.219,-0.946
208,73150.232,-105.07627362,39.01796719,-14.336,-0.944
209,73150.405,-105.07627209,39.01796858,-13.555,-0.891
210,73150.594,-105.07627042,39.01797008,-12.070,-0.886
211,73150.753,-105.07626901,39.01797136,-13.711,-0.897
212,73150.928,-105.07626747,39.01797275,-13.945,-0.902
213,73151.131,-105.07626574,39.01797449,-14.453,-0.910
214,73151.327,-105.07626411,39.01797623,-14.492,-0.900
215,73151.525,-105.07626246,39.01797797,-14.336,-0.908
216,73151.721,-105.07626083,39.01797970,-13.555,-0.893
217,73151.935,-105.07625904,39.01798159,-14.805,-0.905
218,73152.125,-105.07625750,39.01798352,-14.648,-0.881
219,73152.297,-105.07625612,39.01798538,-14.414,-0.875
220,73152.484,-105.07625463,39.01798741,-14.492,-0.852
221,73152.688,-105.07625300,39.01798962,-15.195,-0.878
222,73152.875,-105.07625150,39.01799165,-14.102,-0.885
223,73153.064,-105.07624987,39.01799366,-14.727,-0.921
224,73153.270,-105.07624784,39.01799579,-15.156,-0.930
225,73153.460,-105.07624597,39.01799776,-15.508,-0.937
226,73153.635,-105.07624425,39.01799956,-15.195,-0.924
227,73153.826,-105.07624238,39.01800154,-13.750,-0.933
228,73154.032,-105.07624049,39.01800364,-13.867,-0.908
229,73154.222,-105.07623948,39.01800541,-12.188,-0.834
230,73154.428,-105.07623838,39.01800733,-13.203,-0.878
231,73154.619,-105.07623736,39.01800911,-13.477,-0.906
232,73154.809,-105.07623635,39.01801089,-13.711,-0.936
233,73155.000,-105.07623533,39.01801267,-14.805,-0.934
234,73155.187,-105.07623362,39.01801419,-15.430,-0.920
235,73155.375,-105.07623190,39.01801573,-14.922,-0.910
236,73155.562,-105.07623018,39.01801726,-14.531,-0.885
237,73155.750,-105.07622846,39.01801879,-14.492,-0.868
238,73155.953,-105.07622660,39.01802045,-13.789,-0.907
239,73156.140,-105.07622568,39.01802226,-14.727,-0.915
240,73156.328,-105.07622502,39.01802417,-15.352,-0.888
241,73156.500,-105.07622442,39.01802592,-15.156,-0.891
242,73156.703,-105.07622371,39.01802798,-14.492,-0.871
243,73156.890,-105.07622305,39.01802988,-13.242,-0.859
244,73157.090,-105.07622231,39.01803190,-11.289,-0.842
245,73157.253,-105.07622165,39.01803353,-11.836,-0.827
246,73157.448,-105.07622087,39.01803548,-11.836,-0.799
247,73157.627,-105.07622016,39.01803727,-12.930,-0.830
248,73157.791,-105.07621950,39.01803891,-13.203,-0.872
249,73157.985,-105.07621873,39.01804085,-13.359,-0.919
250,73158.172,-105.07621752,39.01804286,-14.609,-0.921
251,73158.375,-105.07621617,39.01804506,-14.297,-0.912
252,73158.562,-105.07621492,39.01804709,-14.258,-0.906
253,73158.750,-105.07621367,39.01804912,-12.500,-0.863
254,73158.937,-105.07621242,39.01805115,-10.742,-0.834
255,73159.129,-105.07621140,39.01805293,-11.211,-0.857
256,73159.322,-105.07621050,39.01805457,-12.383,-0.864
257,73159.517,-105.07620959,39.01805622,-12.812,-0.867
258,73159.726,-105.07620861,39.01805801,-13.320,-0.894
259,73159.919,-105.07620771,39.01805965,-12.773,-0.861
260,73160.112,-105.07620640,39.01806139,-13.711,-0.878
261,73160.302,-105.07620482,39.01806320,-13.438,-0.889
262,73160.492,-105.07620323,39.01806501,-13.828,-0.890
263,73160.682,-105.07620165,39.01806681,-13.828,-0.901
264,73160.873,-105.07620006,39.01806863,-13.672,-0.893
265,73161.061,-105.07619859,39.01807035,-13.555,-0.868
266,73161.261,-105.07619726,39.01807205,-12.031,-0.865
267,73161.446,-105.07619602,39.01807363,-12.656,-0.843
268,73161.631,-105.07619480,39.01807519,-10.781,-0.858
269,73161.832,-105.07619346,39.01807690,-8.125,-0.904
270,73162.000,-105.07619233,39.01807833,-3.828,-0.853
271,73162.188,-105.07619121,39.01808043,-0.586,-0.832
272,73162.391,-105.07618999,39.01808270,0.273,-0.784
273,73162.579,-105.07618886,39.01808480,-1.406,-0.725
274,73162.766,-105.07618774,39.01808689,-4.180,-0.755
275,73162.954,-105.07618661,39.01808899,-6.719,-0.792
276,73163.150,-105.07618518,39.01809095,-9.102,-0.790
277,73163.329,-105.07618381,39.01809268,-10.000,-0.817
278,73163.493,-105.07618255,39.01809426,-12.539,-0.801
279,73163.672,-105.07618118,39.01809600,-12.695,-0.787
280,73163.866,-105.07617969,39.01809787,-11.992,-0.804
281,73164.051,-105.07617794,39.01809962,-14.727,-0.818
282,73164.255,-105.07617506,39.01810142,-13.516,-0.867
283,73164.475,-105.07617194,39.01810336,-14.219,-0.884
284,73164.678,-105.07616906,39.01810515,-13.789,-0.879
285,73164.864,-105.07616642,39.01810680,-13.945,-0.903
286,73165.073,-105.07616385,39.01810881,-14.297,-0.893
287,73165.250,-105.07616229,39.01811075,-14.883,-0.914
288,73165.426,-105.07616074,39.01811269,-14.688,-0.915
289,73165.603,-105.07615917,39.01811463,-15.664,-0.894
290,73165.794,-105.07615749,39.01811673,-15.312,-0.887
291,73165.970,-105.07615593,39.01811867,-14.648,-0.914
292,73166.159,-105.07615429,39.01812040,-14.414,-0.890
293,73166.349,-105.07615265,39.01812208,-13.359,-0.889
294,73166.540,-105.07615099,39.01812377,-14.336,-0.858
295,73166.730,-105.07614934,39.01812545,-15.234,-0.818
296,73166.921,-105.07614769,39.01812713,-14.961,-0.840
297,73167.114,-105.07614591,39.01812873,-14.844,-0.863
298,73167.286,-105.07614428,39.01813007,-15.195,-0.870
299,73167.457,-105.07614266,39.01813141,-14.492,-0.873
300,73167.614,-105.07614116,39.01813265,-15.430,-0.848
301,73167.800,-105.07613940,39.01813410,-14.922,-0.835
302,73167.972,-105.07613777,39.01813544,-14.688,-0.848
303,73168.200,-105.07613580,39.01813747,-14.727,-0.840
304,73168.418,-105.07613395,39.01813943,-13.867,-0.874
305,73168.637,-105.07613209,39.01814140,-14.648,-0.870
306,73168.854,-105.07613024,39.01814336,-14.766,-0.839
307,73169.059,-105.07612859,39.01814523,-15.000,-0.861
308,73169.235,-105.07612735,39.01814690,-12.422,-0.833
309,73169.412,-105.07612612,39.01814858,-14.023,-0.822
310,73169.603,-105.07612478,39.01815040,-14.492,-0.830
311,73169.779,-105.07612355,39.01815207,-15.273,-0.783
312,73169.956,-105.07612231,39.01815375,-14.453,-0.765
313,73170.147,-105.07612087,39.01815556,-13.867,-0.795
314,73170.360,-105.07611924,39.01815759,-12.461,-0.778
315,73170.540,-105.07611786,39.01815930,-13.281,-0.837
316,73170.738,-105.07611634,39.01816117,-13.789,-0.856
317,73170.934,-105.07611484,39.01816304,-14.688,-0.823
318,73171.136,-105.07611370,39.01816441,-14.102,-0.825
319,73171.318,-105.07611285,39.01816542,-13.789,-0.798
320,73171.500,-105.07611200,39.01816641,-13.867,-0.796
321,73171.697,-105.07611108,39.01816750,-14.062,-0.861
322,73171.863,-105.07611030,39.01816841,-14.883,-0.891
323,73172.047,-105.07610927,39.01816948,-15.352,-0.870
324,73172.250,-105.07610754,39.01817083,-14.375,-0.860
325,73172.438,-105.07610594,39.01817209,-14.023,-0.845
326,73172.625,-105.07610435,39.01817333,-14.336,-0.816
327,73172.828,-105.07610263,39.01817469,-13.867,-0.809
328,73173.017,-105.07610103,39.01817597,-14.805,-0.787
329,73173.194,-105.07609952,39.01817742,-15.508,-0.730
330,73173.404,-105.07609774,39.01817913,-14.375,-0.741
331,73173.596,-105.07609610,39.01818070,-14.688,-0.735
332,73173.791,-105.07609445,39.01818229,-14.766,-0.738
333,73173.983,-105.07609281,39.01818387,-13.086,-0.788
334,73174.172,-105.07609161,39.01818506,-13.828,-0.813
335,73174.375,-105.07609035,39.01818631,-13.555,-0.810
336,73174.562,-105.07608920,39.01818747,-13.320,-0.838
337,73174.750,-105.07608804,39.01818862,-12.539,-0.801
338,73174.937,-105.07608689,39.01818978,-13.438,-0.807
339,73175.127,-105.07608597,39.01819099,-12.812,-0.856
340,73175.317,-105.07608518,39.01819223,-13.633,-0.865
341,73175.508,-105.07608438,39.01819347,-13.320,-0.824
342,73175.714,-105.07608352,39.01819481,-12.969,-0.823
343,73175.904,-105.07608273,39.01819605,-12.695,-0.815
344,73176.076,-105.07608179,39.01819721,-13.555,-0.849
345,73176.273,-105.07608038,39.01819862,-13.594,-0.882
346,73176.455,-105.07607907,39.01819993,-14.336,-0.874
347,73176.636,-105.07607777,39.01820123,-14.453,-0.844
348,73176.834,-105.07607636,39.01820264,-13.789,-0.850
349,73177.016,-105.07607506,39.01820398,-11.914,-0.794
350,73177.201,-105.07607376,39.01820574,-14.297,-0.790
351,73177.385,-105.07607247,39.01820749,-12.969,-0.817
352,73177.570,-105.07607118,39.01820925,-12.969,-0.831
353,73177.754,-105.07606989,39.01821100,-13.320,-0.845
354,73177.939,-105.07606859,39.01821275,-13.867,-0.878
355,73178.146,-105.07606749,39.01821433,-13.711,-0.882
356,73178.338,-105.07606659,39.01821565,-13.633,-0.894
357,73178.533,-105.07606568,39.01821697,-12.852,-0.899
358,73178.742,-105.07606470,39.01821840,-14.180,-0.873
